Time (ms),Trajectory 1
0,0
17,-0.0178682431578636
33,-0.0348734930157661
50,-0.0489056631922722
67,-0.0571322068572044
83,-0.0578484311699867
100,-0.0521723106503487
117,-0.0436679050326347
133,-0.0360872820019722
150,-0.0316097512841225
167,-0.0304341167211533
183,-0.0314497128129005
200,-0.0333637297153473
217,-0.0352086648344994
233,-0.0362275764346123
250,-0.0360564813017845
267,-0.0351659283041954
283,-0.0345230475068092
300,-0.034621499478817
317,-0.0352867618203163
333,-0.0362929180264473
350,-0.0375087633728981
367,-0.0385372117161751
383,-0.0390244349837303
400,-0.0394816473126411
417,-0.0410597398877144
433,-0.0443171039223671
450,-0.0486743673682213
467,-0.0529290363192558
483,-0.0559974387288094
500,-0.0574371591210365
517,-0.0575304105877876
533,-0.056968592107296
550,-0.0564074292778969
567,-0.056139849126339
583,-0.0562106445431709
600,-0.0567972585558891
617,-0.0581660643219948
633,-0.0602310076355934
650,-0.0624723359942436
667,-0.0643291100859642
683,-0.0655425265431404
700,-0.0662573501467705
717,-0.0669415965676308
733,-0.0681721940636635
750,-0.0703407898545265
767,-0.0733901485800743
783,-0.0768115445971489
800,-0.0799139961600304
817,-0.0821590051054955
833,-0.0834033563733101
850,-0.0838696137070656
867,-0.0838979259133339
883,-0.0837593898177147
900,-0.0836099311709404
917,-0.0835110172629356
933,-0.0834688618779182
950,-0.0834674015641212
967,-0.0834879502654076
983,-0.0835171267390251
1000,-0.0835480764508247
1017,-0.0835784897208214
1033,-0.0836082771420479
1050,-0.0836379900574684
1067,-0.083668477833271
1083,-0.0837008282542229
1100,-0.0837360993027687
1117,-0.0837746635079384
1133,-0.0838159546256065
1150,-0.0838588103652
1167,-0.083902008831501
1183,-0.0839444622397423
1200,-0.0839854255318642
1217,-0.084024615585804
1233,-0.0840622559189796
1250,-0.0840988680720329
1267,-0.0841348990797997
1283,-0.0841705724596977
1300,-0.0842060074210167
1317,-0.0842413082718849
1333,-0.0842766985297203
1350,-0.0843125507235527
1367,-0.084349162876606
1383,-0.0843866541981697
1400,-0.0844249203801155
1417,-0.0844635888934135
1433,-0.0845019444823265
1450,-0.0845391377806664
1467,-0.0845748707652092
1483,-0.0846104547381401
1500,-0.0846495106816292
1517,-0.0846979692578316
1533,-0.0847625955939293
1550,-0.0848464742302895
1567,-0.0849403813481331
1583,-0.0850105956196785
1600,-0.0849878117442131
1617,-0.08476871997118
1633,-0.0842500999569893
1650,-0.0834211334586143
1667,-0.0824533626437187
1683,-0.0816227123141289
1700,-0.0811017528176308
1717,-0.0808810964226723
1733,-0.0808585211634636
1750,-0.0809308812022209
1767,-0.0810283198952675
1783,-0.0811159834265709
1800,-0.0811835303902626
1817,-0.0812334343791008
1833,-0.0812724456191063
1850,-0.0813067927956581
1867,-0.0813405737280846
1883,-0.0813756659626961
1900,-0.0814123824238777
1917,-0.0814500078558922
1933,-0.0814871564507484
1950,-0.0815223231911659
1967,-0.0815552249550819
1983,-0.0815888866782188
2000,-0.0816319659352303
2017,-0.0817000046372414
2033,-0.0818121805787086
2050,-0.0819775089621544
2067,-0.0821663662791252
2083,-0.0822722837328911
2100,-0.0820814296603203
2117,-0.0812836512923241
2133,-0.0795832201838493
2150,-0.0769842341542244
2167,-0.0740631893277168
2183,-0.0717209205031395
2200,-0.0705123767256737
2217,-0.0703234896063805
2233,-0.0705937519669533
2250,-0.0707698836922646
2267,-0.0706963017582893
2283,-0.0705873146653175
2300,-0.0706360265612602
2317,-0.0707933232188225
2333,-0.0709943100810051
2350,-0.0715021565556526
2367,-0.0728031620383263
2383,-0.0751517489552498
2400,-0.078458271920681
2417,-0.0824549421668053
2433,-0.0866013988852501
2450,-0.090061329305172
2467,-0.0920700803399086
2483,-0.0922630205750465
2500,-0.0907501354813576
2517,-0.0880324169993401
2533,-0.0848196223378181
2550,-0.0817899033427238
2567,-0.0793544426560402
2583,-0.0775674656033516
2600,-0.0762231722474098
2617,-0.0751077309250832
2633,-0.0742766335606575
2650,-0.07407196611166
2667,-0.0748613104224205
2683,-0.076742522418499
2700,-0.0793785974383354
2717,-0.0821134820580482
2733,-0.0842991098761559
2750,-0.0855173543095589
2767,-0.0856230929493904
2783,-0.0847201272845268
2800,-0.0831108316779137
2817,-0.0811969563364983
2833,-0.0793381556868553
2850,-0.0777278617024422
2867,-0.0763557478785515
2883,-0.0751598253846169
2900,-0.0742720291018486
2917,-0.0740321651101112
2933,-0.074730210006237
2950,-0.0763194486498833
2967,-0.0782846584916115
2983,-0.0798540934920311
3000,-0.0804477110505104
3017,-0.0799093320965767
3033,-0.0784306153655052
3050,-0.0763768181204796
3067,-0.0741344466805458
3083,-0.0720480754971504
3100,-0.0704182013869286
3117,-0.0694576576352119
3133,-0.0692015960812569
3150,-0.0694773122668266
3167,-0.0700053200125694
3183,-0.0706643685698509
3200,-0.0717299953103065
3217,-0.0736294314265251
3233,-0.0763283148407936
3250,-0.0790850445628166
3267,-0.0807685181498528
3283,-0.0804458037018776
3300,-0.0779457464814186
3317,-0.0739707574248314
3333,-0.0697144940495491
3350,-0.0663042291998863
3367,-0.0643428936600685
3383,-0.0638986900448799
3400,-0.0648378655314445
3417,-0.0669718012213707
3433,-0.0699648633599281
3450,-0.0733795389533043
3467,-0.0768692120909691
3483,-0.0801544710993767
3500,-0.0828121080994606
3517,-0.084297887980938
3533,-0.084245003759861
3550,-0.0826903507113457
3567,-0.0800738409161568
3583,-0.0770075842738152
3600,-0.0739550814032555
3617,-0.0711473152041435
3633,-0.0687583759427071
3650,-0.0670133456587791
3667,-0.0660095885396004
3683,-0.0654482915997505
3700,-0.0646725073456764
3717,-0.0631650909781456
3733,-0.0611590370535851
3750,-0.0597295835614204
3767,-0.0602907761931419
3783,-0.0638742372393608
3800,-0.0704985186457634
3817,-0.079038180410862
3833,-0.0876833871006966
3850,-0.0947848334908485
3867,-0.0996387228369713
3883,-0.102348051965237
3900,-0.102993227541447
3917,-0.101438604295254
3933,-0.0979313179850578
3950,-0.0933640524744987
3967,-0.0887855812907219
3983,-0.0848958715796471
4000,-0.0819073989987373
4017,-0.0795865431427956
4033,-0.0774812772870064
4050,-0.0752102509140968
4067,-0.0725909247994423
4083,-0.0697047188878059
4100,-0.0669500157237053
4117,-0.0649008080363274
4133,-0.0640293881297112
4150,-0.0646222159266472
4167,-0.0668349489569664
4183,-0.0704908445477486
4200,-0.0747669860720634
4217,-0.0784790143370628
4233,-0.0808480903506279
4250,-0.0817544385790825
4267,-0.0813674405217171
4283,-0.0798585340380669
4300,-0.0774141177535057
4317,-0.0743384137749672
4333,-0.071100078523159
4350,-0.0682342723011971
4367,-0.0661368444561958
4383,-0.0649306103587151
4400,-0.0644562467932701
4417,-0.064350925385952
4433,-0.0642490610480309
4450,-0.0641773715615273
4467,-0.064883254468441
4483,-0.0674296543002129
4500,-0.072212927043438
4517,-0.0784673914313316
4533,-0.0845914259552956
4550,-0.0890089794993401
4567,-0.0910652801394463
4583,-0.0910549834370613
4600,-0.0894950553774834
4617,-0.0867415741086006
4633,-0.0831597521901131
4650,-0.0792559906840324
4667,-0.0755726173520088
4683,-0.0725236013531685
4700,-0.0702666714787483
4717,-0.068660669028759
4733,-0.0673411265015602
4750,-0.0659405663609505
4767,-0.0643736198544502
4783,-0.062949575483799
4800,-0.0622497126460075
4817,-0.0628479048609734
4833,-0.0649720653891563
4850,-0.0682957246899605
4867,-0.0719789937138557
4883,-0.0750494971871376
4900,-0.0769287571310997
4917,-0.0775429531931877
4933,-0.0770190134644508
4950,-0.0754914358258247
4967,-0.0731595233082771
4983,-0.0703921541571617
5000,-0.0677331909537315
5017,-0.0657031014561653
5033,-0.0644967332482338
5050,-0.0639268234372139
5067,-0.0636404529213905
5083,-0.0633272305130959
5100,-0.0628431513905525
5117,-0.0623256042599678
5133,-0.0622443035244942
5150,-0.0631796643137932
5167,-0.0653746202588081
5183,-0.0684204623103142
5200,-0.0712850615382195
5217,-0.072801761329174
5233,-0.0723870769143105
5250,-0.0702946409583092
5267,-0.0673073753714561
5283,-0.0643076673150063
5300,-0.0619481131434441
5317,-0.0605176463723183
5333,-0.0599799826741219
5350,-0.0600925907492638
5367,-0.0606000497937202
5383,-0.0615439042448997
5400,-0.063486821949482
5417,-0.0671464875340462
5433,-0.0725625082850456
5450,-0.0786313489079475
5467,-0.083371140062809
5483,-0.0848971977829933
5500,-0.0826246067881584
5517,-0.0775233283638954
5533,-0.0713249072432518
5550,-0.0656025782227516
5567,-0.0612065866589546
5583,-0.0582855567336082
5600,-0.0567091181874275
5617,-0.0563260391354561
5633,-0.0569874718785286
5650,-0.0586847141385078
5667,-0.0617440715432167
5683,-0.0665888115763664
5700,-0.0730862990021706
5717,-0.0800678357481956
5733,-0.0854383632540703
5750,-0.0872061178088188
5767,-0.0848949328064919
5783,-0.0797073319554329
5800,-0.0734000727534294
5817,-0.0673851296305656
5833,-0.0625204667448997
5850,-0.0592045858502388
5867,-0.0575100257992744
5883,-0.0572999492287636
5900,-0.0584456846117973
5917,-0.0610718354582787
5933,-0.0654390230774879
5950,-0.071442998945713
5967,-0.0782701298594475
5983,-0.0845242962241173
6000,-0.0888923481106758
6017,-0.0909663066267967
6033,-0.0912527814507484
6050,-0.0904129520058632
6067,-0.0887760147452354
6083,-0.0864638164639473
6100,-0.0837021246552467
6117,-0.0808539763092995
6133,-0.0781818106770515
6150,-0.0757265016436577
6167,-0.0733935162425041
6183,-0.0710663720965385
6200,-0.0686835572123528
6217,-0.0663057342171669
6233,-0.0641841217875481
6250,-0.0628023520112038
6267,-0.0628112778067589
6283,-0.0647247210144997
6300,-0.0684616342186928
6317,-0.0731105580925941
6333,-0.0771260932087898
6350,-0.079043798148632
6367,-0.0783706977963448
6383,-0.0757154747843742
6400,-0.0721296593546867
6417,-0.0685026869177818
6433,-0.0653283223509789
6450,-0.0627689138054848
6467,-0.0608647242188454
6483,-0.0596573725342751
6500,-0.059200294315815
6517,-0.0595996752381325
6533,-0.0610639825463295
6550,-0.0637653842568398
6567,-0.0675459131598473
6583,-0.071772612631321
6600,-0.0754881128668785
6617,-0.0778633132576942
6633,-0.0787004306912422
6650,-0.0783854648470879
6667,-0.0773589387536049
6683,-0.0758424028754234
6700,-0.0739615634083748
6717,-0.0718726292252541
6733,-0.0697594806551933
6750,-0.0678095147013664
6767,-0.0661937519907951
6783,-0.0649987235665321
6800,-0.0641483291983604
6817,-0.0634560957551003
6833,-0.0628233477473259
6850,-0.062456302344799
6867,-0.0629459843039513
6883,-0.0649831369519234
6900,-0.0688066855072975
6917,-0.0738821998238564
6933,-0.0790193751454353
6950,-0.0829149708151817
6967,-0.084850899875164
6983,-0.084898330271244
7000,-0.0835764929652214
7017,-0.0814609602093697
7033,-0.078956700861454
7050,-0.0762524232268333
7067,-0.0734185501933098
7083,-0.0705766603350639
7100,-0.0680187717080116
7117,-0.0660724267363548
7133,-0.064804382622242
7150,-0.0639730617403984
7167,-0.0632912740111351
7183,-0.0627219006419182
7200,-0.0626151487231255
7217,-0.0635202899575233
7233,-0.0657494142651558
7250,-0.0690620616078377
7267,-0.0726602450013161
7283,-0.0755648538470268
7300,-0.0771655663847923
7317,-0.0773799791932106
7333,-0.076425664126873
7350,-0.0746472701430321
7367,-0.0724343582987785
7383,-0.0701407268643379
7400,-0.0680583789944649
7417,-0.066422738134861
7433,-0.0653620436787605
7450,-0.0648064538836479
7467,-0.0644888505339622
7483,-0.0640599355101585
7500,-0.0632278844714165
7517,-0.0619287416338921
7533,-0.0605083778500557
7550,-0.0597476586699486
7567,-0.0606231465935707
7583,-0.063767246901989
7600,-0.0688870623707771
7617,-0.0748134776949883
7633,-0.0801787599921227
7650,-0.0840382054448128
7667,-0.0861293151974678
7683,-0.0867003872990608
7700,-0.0860888138413429
7717,-0.084502212703228
7733,-0.082089401781559
7750,-0.0790745690464973
7767,-0.0758142098784447
7783,-0.0727042630314827
7800,-0.0700011923909187
7817,-0.0677734836935997
7833,-0.0659902170300484
7850,-0.0645601227879524
7867,-0.0633273795247078
7883,-0.062208004295826
7900,-0.0614147707819939
7917,-0.0614493563771248
7933,-0.0627981945872307
7950,-0.0655399337410927
7967,-0.0690907314419746
7983,-0.0724095925688744
8000,-0.0745726600289345
8017,-0.075165681540966
8033,-0.0743237212300301
8050,-0.0725360885262489
8067,-0.07036042958498
8083,-0.0682525709271431
8100,-0.0665265992283821
8117,-0.0653168484568596
8133,-0.0645323470234871
8150,-0.0639237090945244
8167,-0.0632781758904457
8183,-0.062635563313961
8200,-0.0624033287167549
8217,-0.0631851479411125
8233,-0.0653788074851036
8250,-0.0688887014985085
8267,-0.07311100512743
8283,-0.0772232785820961
8300,-0.0806062892079353
8317,-0.0829600468277931
8333,-0.0841250792145729
8350,-0.0840317532420158
8367,-0.0828309431672096
8383,-0.0808989629149437
8400,-0.0786731019616127
8417,-0.076540507376194
8433,-0.0748213902115822
8450,-0.0737341716885567
8467,-0.0733293369412422
8483,-0.0734922960400581
8500,-0.0740010365843773
8517,-0.0745101645588875
8533,-0.074529342353344
8550,-0.0736547335982323
8567,-0.0720090344548225
8583,-0.0704797878861427
8600,-0.0705302283167839
8617,-0.0735041722655296
8633,-0.0797154828906059
8650,-0.0881437584757805
8667,-0.0969207212328911
8683,-0.104216031730175
8700,-0.109091050922871
8717,-0.111651040613651
8733,-0.112519077956676
8750,-0.112299270927906
8767,-0.11131214350462
8783,-0.109616078436375
8800,-0.107214920222759
8817,-0.104248322546482
8833,-0.101059012115002
8850,-0.0980862304568291
8867,-0.0956563726067543
8883,-0.0938827469944954
8900,-0.0927484408020973
8917,-0.0923246815800667
8933,-0.0929406508803368
8950,-0.0949504598975182
8967,-0.0981912985444069
8983,-0.101729713380337
9000,-0.104135729372501
9017,-0.104205302894115
9033,-0.101745523512363
9050,-0.0975800231099129
9067,-0.0928343012928963
9083,-0.0884495750069618
9100,-0.0851292088627815
9117,-0.0832919552922249
9133,-0.0829073265194893
9150,-0.0835007205605507
9167,-0.0844917371869087
9183,-0.0855683609843254
9200,-0.0867487862706184
9217,-0.0881366059184074
9233,-0.0896325632929802
9250,-0.0908466801047325
9267,-0.0912530496716499
9283,-0.0905240252614021
9300,-0.0888403430581093
9317,-0.0867642387747765
9333,-0.084797166287899
9350,-0.0832184627652168
9367,-0.0821578726172447
9383,-0.0815760120749474
9400,-0.0812716856598854
9417,-0.0810037031769753
9433,-0.0806140676140785
9450,-0.0801286324858665
9467,-0.0797900035977364
9483,-0.0798553451895714
9500,-0.0802715048193932
9517,-0.0806630328297615
9533,-0.0806501731276512
9550,-0.0800982341170311
9567,-0.0791429057717323
9583,-0.0780261233448982
9600,-0.0768793150782585
9617,-0.0757241323590279
9633,-0.0746526643633842
9650,-0.0738448426127434
9667,-0.0733937993645668
9683,-0.0732213482260704
9700,-0.0731459483504295
9717,-0.0729615911841393
9733,-0.0724912956357002
9750,-0.0716678127646446
9767,-0.0706049129366875
9783,-0.0695147141814232
9800,-0.0685282424092293
9817,-0.0676928088068962
9833,-0.0671077445149422
9850,-0.0668538138270378
9867,-0.0667739138007164
9883,-0.0665756985545158
9900,-0.0662091597914696
9917,-0.0659321174025536
9933,-0.0659934803843498
9950,-0.0663699433207512
9967,-0.0667527392506599
9983,-0.0667926743626595
10000,-0.0664257779717445
10017,-0.0658706054091454
10033,-0.0653173848986626
10050,-0.0647534057497978
10067,-0.0640491023659706
10083,-0.0631424561142921
10100,-0.0621800646185875
10117,-0.0614565536379814
10133,-0.061193935573101
10150,-0.0614157542586327
10167,-0.0619466975331306
10183,-0.0624532029032707
10200,-0.062647245824337
10217,-0.062566839158535
10233,-0.0625132396817207
10250,-0.0626441761851311
10267,-0.0627358630299568
10283,-0.0624108538031578
10300,-0.0615535899996758
10317,-0.0604221448302269
10333,-0.0593968853354454
10350,-0.0586382821202278
10367,-0.0579020008444786
10383,-0.0568001791834831
10400,-0.0553096607327461
10417,-0.0537927225232124
10433,-0.0525348857045174
10450,-0.0515346899628639
10467,-0.050722636282444
10483,-0.0501904413104057
10500,-0.0501081272959709
10517,-0.0504701510071754
10533,-0.0511222407221794
10550,-0.0520656183362007
10567,-0.0535745844244957
10583,-0.05595513433218
10600,-0.0592085346579552
10617,-0.0629454776644707
10633,-0.0665631666779518
10650,-0.0694664791226387
10667,-0.0712481066584587
10683,-0.0718205794692039
10700,-0.0714439228177071
10717,-0.0705167725682259
10733,-0.0692408755421638
10750,-0.0675538703799248
10767,-0.0653566494584084
10783,-0.0627104714512825
10800,-0.0598511770367622
10817,-0.0570035353302956
10833,-0.0541876181960106
10850,-0.051361970603466
10867,-0.0487962439656258
10883,-0.0472451224923134
10900,-0.0476668998599052
10917,-0.0505379065871239
10933,-0.0552766248583794
10950,-0.0602613314986229
10967,-0.0633769556879997
10983,-0.0630248412489891
11000,-0.0592198595404625
11017,-0.0535371080040932
11033,-0.0478353127837181
11050,-0.0433386787772179
11067,-0.0405938848853111
11083,-0.0396372899413109
11100,-0.0401853397488594
11117,-0.0418083593249321
11133,-0.0439906045794487
11150,-0.0463483706116676
11167,-0.0489708408713341
11183,-0.0523273721337318
11200,-0.056652270257473
11217,-0.0614578798413277
11233,-0.0657215490937233
11250,-0.0684757009148598
11267,-0.0693175718188286
11283,-0.0686618611216545
11300,-0.0674304440617561
11317,-0.066335491836071
11333,-0.0655186399817467
11350,-0.0646985992789268
11367,-0.0634534284472466
11383,-0.0615228936076164
11400,-0.0590557977557182
11417,-0.0565349981188774
11433,-0.0544260963797569
11450,-0.052923746407032
11467,-0.0519260093569756
11483,-0.0511831566691399
11500,-0.0505513474345207
11517,-0.050231359899044
11533,-0.0508443638682365
11550,-0.0531197264790535
11567,-0.0572917237877846
11583,-0.062698982656002
11600,-0.0678868368268013
11617,-0.0713911280035973
11633,-0.0727419033646584
11650,-0.07242401689291
11667,-0.0709405615925789
11683,-0.0685210004448891
11700,-0.0655992701649666
11717,-0.0628409311175346
11733,-0.0605894699692726
11750,-0.0586992278695107
11767,-0.0569088384509087
11783,-0.0551234856247902
11800,-0.0534103587269783
11817,-0.0518919304013252
11833,-0.0506877526640892
11850,-0.0500320419669151
11867,-0.0504359230399132
11883,-0.0524920001626015
11900,-0.0563542619347572
11917,-0.061414398252964
11933,-0.0664084032177925
11950,-0.0699628219008446
11967,-0.0713315084576607
11983,-0.070689745247364
12000,-0.0688531622290611
12017,-0.0667226240038872
12033,-0.0647618100047112
12050,-0.0629367753863335
12067,-0.0610645040869713
12083,-0.0590642914175987
12100,-0.0569742247462273
12117,-0.0549091622233391
12133,-0.053033210337162
12150,-0.0515189990401268
12167,-0.0505296364426613
12183,-0.0503282472491264
12200,-0.0513709560036659
12217,-0.0539832040667534
12233,-0.0576892420649529
12250,-0.0610493496060371
12267,-0.0625564828515053
12283,-0.0617236122488976
12300,-0.0591747239232063
12317,-0.0559462681412697
12333,-0.0528456643223763
12350,-0.0501973256468773
12367,-0.0480079725384712
12383,-0.0462782010436058
12400,-0.0451025292277336
12417,-0.0445427373051643
12433,-0.0444963499903679
12450,-0.0448713079094887
12467,-0.0459170266985893
12483,-0.0480733588337898
12500,-0.0513646975159645
12517,-0.0550714656710625
12533,-0.0579497888684273
12550,-0.0588688477873802
12567,-0.0575197413563728
12583,-0.0544954016804695
12600,-0.050743542611599
12617,-0.0470732375979424
12633,-0.0439741536974907
12650,-0.0416925922036171
12667,-0.040409155189991
12683,-0.0402641519904137
12700,-0.0412498638033867
12717,-0.0432530418038368
12733,-0.0462431386113167
12750,-0.0503020212054253
12767,-0.0554225817322731
12783,-0.0612356588244438
